10.00010 690.000
10.02056 639.000
10.04101 582.000
10.06147 608.000
10.08192 568.000
10.10238 558.000
10.12284 573.000
10.14329 576.000
10.16375 537.000
10.18420 542.000
10.20466 512.000
10.22512 564.000
10.24557 544.000
10.26603 553.000
10.28648 536.000
10.30694 493.000
10.32740 545.000
10.34785 506.000
10.36831 510.000
10.38876 529.000
10.40922 474.000
10.42968 504.000
10.45013 469.000
10.47059 444.000
10.49104 483.000
10.51150 428.000
10.53195 414.000
10.55241 404.000
10.57287 420.000
10.59332 432.000
10.61378 440.000
10.63423 432.000
10.65469 400.000
10.67515 406.000
10.69560 417.000
10.71606 396.000
10.73651 401.000
10.75697 401.000
10.77743 431.000
10.79788 398.000
10.81834 392.000
10.83879 414.000
10.85925 412.000
10.87971 383.000
10.90016 387.000
10.92062 383.000
10.94107 390.000
10.96153 381.000
10.98199 313.000
11.00244 393.000
11.02290 412.000
11.04335 363.000
11.06381 375.000
11.08427 381.000
11.10472 356.000
11.12518 384.000
11.14563 406.000
11.16609 392.000
11.18655 364.000
11.20700 348.000
11.22746 378.000
11.24791 433.000
11.26837 419.000
11.28883 375.000
11.30928 352.000
11.32974 383.000
11.35019 385.000
11.37065 400.000
11.39110 397.000
11.41156 400.000
11.43202 396.000
11.45247 385.000
11.47293 391.000
11.49338 417.000
11.51384 378.000
11.53430 369.000
11.55475 386.000
11.57521 414.000
11.59566 395.000
11.61612 415.000
11.63658 465.000
11.65703 435.000
11.67749 498.000
11.69794 523.000
11.71840 706.000
11.73886 958.000
11.75931 1425.000
11.77977 1889.000
11.80022 1630.000
11.82068 1100.000
11.84114 619.000
11.86159 477.000
11.88205 457.000
11.90250 439.000
11.92296 466.000
11.94342 427.000
11.96387 442.000
11.98433 433.000
12.00478 432.000
12.02524 386.000
12.04570 396.000
12.06615 415.000
12.08661 441.000
12.10706 419.000
12.12752 445.000
12.14798 468.000
12.16843 421.000
12.18889 441.000
12.20934 411.000
12.22980 392.000
12.25026 409.000
12.27071 374.000
12.29117 433.000
12.31162 437.000
12.33208 404.000
12.35253 446.000
12.37299 424.000
12.39345 422.000
12.41390 431.000
12.43436 438.000
12.45481 403.000
12.47527 388.000
12.49573 481.000
12.51618 409.000
12.53664 417.000
12.55709 393.000
12.57755 421.000
12.59801 344.000
12.61846 454.000
12.63892 454.000
12.65937 420.000
12.67983 435.000
12.70029 449.000
12.72074 434.000
12.74120 425.000
12.76165 444.000
12.78211 433.000
12.80257 424.000
12.82302 406.000
12.84348 439.000
12.86393 448.000
12.88439 431.000
12.90485 424.000
12.92530 455.000
12.94576 426.000
12.96621 415.000
12.98667 442.000
13.00713 495.000
13.02758 429.000
13.04804 401.000
13.06849 423.000
13.08895 402.000
13.10941 417.000
13.12986 449.000
13.15032 455.000
13.17077 470.000
13.19123 452.000
13.21169 430.000
13.23214 470.000
13.25260 477.000
13.27305 480.000
13.29351 493.000
13.31396 532.000
13.33442 559.000
13.35488 482.000
13.37533 489.000
13.39579 523.000
13.41624 491.000
13.43670 475.000
13.45716 499.000
13.47761 471.000
13.49807 502.000
13.51852 497.000
13.53898 479.000
13.55944 518.000
13.57989 566.000
13.60035 567.000
13.62080 586.000
13.64126 547.000
13.66172 596.000
13.68217 618.000
13.70263 688.000
13.72308 812.000
13.74354 884.000
13.76400 1042.000
13.78445 1363.000
13.80491 1825.000
13.82536 2532.000
13.84582 3833.000
13.86628 6059.000
13.88673 9943.000
13.90719 17040.000
13.92764 24453.000
13.94810 19073.000
13.96856 12565.000
13.98901 5288.000
14.00947 2045.000
14.02992 1423.000
14.05038 1214.000
14.07084 970.000
14.09129 894.000
14.11175 933.000
14.13220 758.000
14.15266 753.000
14.17311 674.000
14.19357 700.000
14.21403 664.000
14.23448 648.000
14.25494 637.000
14.27539 628.000
14.29585 625.000
14.31631 618.000
14.33676 635.000
14.35722 569.000
14.37767 589.000
14.39813 559.000
14.41859 569.000
14.43904 553.000
14.45950 615.000
14.47995 630.000
14.50041 606.000
14.52087 579.000
14.54132 596.000
14.56178 593.000
14.58223 525.000
14.60269 528.000
14.62315 562.000
14.64360 593.000
14.66406 523.000
14.68451 589.000
14.70497 544.000
14.72543 528.000
14.74588 600.000
14.76634 572.000
14.78679 593.000
14.80725 573.000
14.82771 585.000
14.84816 585.000
14.86862 616.000
14.88907 561.000
14.90953 582.000
14.92999 586.000
14.95044 557.000
14.97090 566.000
14.99135 575.000
15.01181 583.000
15.03227 541.000
15.05272 542.000
15.07318 537.000
15.09363 540.000
15.11409 544.000
15.13454 510.000
15.15500 499.000
15.17546 566.000
15.19591 529.000
15.21637 551.000
15.23682 535.000
15.25728 569.000
15.27774 577.000
15.29819 509.000
15.31865 520.000
15.33910 544.000
15.35956 567.000
15.38002 513.000
15.40047 543.000
15.42093 512.000
15.44138 515.000
15.46184 489.000
15.48230 469.000
15.50275 517.000
15.52321 514.000
15.54366 477.000
15.56412 547.000
15.58458 541.000
15.60503 517.000
15.62549 561.000
15.64594 443.000
15.66640 533.000
15.68686 510.000
15.70731 525.000
15.72777 554.000
15.74822 536.000
15.76868 499.000
15.78914 464.000
15.80959 518.000
15.83005 489.000
15.85050 483.000
15.87096 513.000
15.89142 498.000
15.91187 527.000
15.93233 539.000
15.95278 530.000
15.97324 557.000
15.99370 505.000
16.01415 479.000
16.03461 493.000
16.05506 525.000
16.07552 488.000
16.09597 537.000
16.11643 496.000
16.13689 491.000
16.15734 515.000
16.17780 519.000
16.19825 532.000
16.21871 511.000
16.23917 508.000
16.25962 508.000
16.28008 535.000
16.30053 526.000
16.32099 499.000
16.34145 514.000
16.36190 506.000
16.38236 516.000
16.40281 497.000
16.42327 525.000
16.44373 525.000
16.46418 520.000
16.48464 533.000
16.50509 545.000
16.52555 511.000
16.54601 500.000
16.56646 522.000
16.58692 490.000
16.60737 540.000
16.62783 467.000
16.64829 547.000
16.66874 492.000
16.68920 520.000
16.70965 489.000
16.73011 489.000
16.75057 481.000
16.77102 467.000
16.79148 541.000
16.81193 532.000
16.83239 514.000
16.85285 486.000
16.87330 542.000
16.89376 524.000
16.91421 530.000
16.93467 480.000
16.95512 465.000
16.97558 521.000
16.99604 484.000
17.01649 553.000
17.03695 542.000
17.05740 519.000
17.07786 491.000
17.09832 550.000
17.11877 546.000
17.13923 534.000
17.15968 509.000
17.18014 502.000
17.20060 510.000
17.22105 545.000
17.24151 551.000
17.26196 568.000
17.28242 545.000
17.30288 558.000
17.32333 537.000
17.34379 538.000
17.36424 527.000
17.38470 524.000
17.40516 528.000
17.42561 527.000
17.44607 543.000
17.46652 546.000
17.48698 559.000
17.50744 506.000
17.52789 538.000
17.54835 575.000
17.56880 576.000
17.58926 567.000
17.60972 547.000
17.63017 536.000
17.65063 545.000
17.67108 564.000
17.69154 557.000
17.71200 556.000
17.73245 615.000
17.75291 605.000
17.77336 614.000
17.79382 631.000
17.81428 655.000
17.83473 607.000
17.85519 563.000
17.87564 628.000
17.89610 623.000
17.91655 552.000
17.93701 604.000
17.95747 619.000
17.97792 585.000
17.99838 597.000
18.01883 573.000
18.03929 549.000
18.05975 581.000
18.08020 576.000
18.10066 579.000
18.12111 598.000
18.14157 552.000
18.16203 625.000
18.18248 568.000
18.20294 533.000
18.22339 600.000
18.24385 603.000
18.26431 583.000
18.28476 595.000
18.30522 560.000
18.32567 589.000
18.34613 602.000
18.36659 622.000
18.38704 596.000
18.40750 594.000
18.42795 621.000
18.44841 620.000
18.46887 630.000
18.48932 596.000
18.50978 597.000
18.53023 622.000
18.55069 560.000
18.57115 568.000
18.59160 551.000
18.61206 637.000
18.63251 610.000
18.65297 567.000
18.67343 608.000
18.69388 562.000
18.71434 648.000
18.73479 582.000
18.75525 569.000
18.77571 589.000
18.79616 598.000
18.81662 609.000
18.83707 651.000
18.85753 564.000
18.87798 601.000
18.89844 621.000
18.91890 631.000
18.93935 605.000
18.95981 622.000
18.98026 638.000
19.00072 644.000
19.02118 716.000
19.04163 718.000
19.06209 685.000
19.08254 741.000
19.10300 675.000
19.12346 689.000
19.14391 650.000
19.16437 610.000
19.18482 611.000
19.20528 623.000
19.22574 608.000
19.24619 634.000
19.26665 649.000
19.28710 596.000
19.30756 661.000
19.32802 602.000
19.34847 607.000
19.36893 666.000
19.38938 636.000
19.40984 636.000
19.43030 598.000
19.45075 669.000
19.47121 607.000
19.49166 622.000
19.51212 641.000
19.53258 674.000
19.55303 680.000
19.57349 668.000
19.59394 742.000
19.61440 712.000
19.63486 744.000
19.65531 834.000
19.67577 962.000
19.69622 1201.000
19.71668 1759.000
19.73713 2377.000
19.75759 2113.000
19.77805 1739.000
19.79850 1558.000
19.81896 1045.000
19.83941 818.000
19.85987 782.000
19.88033 733.000
19.90078 718.000
19.92124 682.000
19.94169 736.000
19.96215 713.000
19.98261 687.000
20.00306 679.000
20.02352 704.000
20.04397 753.000
20.06443 660.000
20.08489 674.000
20.10534 680.000
20.12580 644.000
20.14625 698.000
20.16671 682.000
20.18717 681.000
20.20762 648.000
20.22808 677.000
20.24853 647.000
20.26899 695.000
20.28945 702.000
20.30990 665.000
20.33036 731.000
20.35081 676.000
20.37127 743.000
20.39173 682.000
20.41218 754.000
20.43264 814.000
20.45309 841.000
20.47355 766.000
20.49401 766.000
20.51446 741.000
20.53492 724.000
20.55537 689.000
20.57583 741.000
20.59629 751.000
20.61674 707.000
20.63720 692.000
20.65765 698.000
20.67811 701.000
20.69856 775.000
20.71902 705.000
20.73948 733.000
20.75993 747.000
20.78039 711.000
20.80084 748.000
20.82130 729.000
20.84176 808.000
20.86221 746.000
20.88267 777.000
20.90312 744.000
20.92358 801.000
20.94404 710.000
20.96449 733.000
20.98495 695.000
21.00540 737.000
21.02586 753.000
21.04632 739.000
21.06677 781.000
21.08723 765.000
21.10768 784.000
21.12814 785.000
21.14860 775.000
21.16905 763.000
21.18951 808.000
21.20996 750.000
21.23042 761.000
21.25088 803.000
21.27133 757.000
21.29179 781.000
21.31224 750.000
21.33270 831.000
21.35316 724.000
21.37361 720.000
21.39407 766.000
21.41452 764.000
21.43498 793.000
21.45544 842.000
21.47589 782.000
21.49635 804.000
21.51680 792.000
21.53726 864.000
21.55772 799.000
21.57817 785.000
21.59863 868.000
21.61908 842.000
21.63954 825.000
21.65999 820.000
21.68045 812.000
21.70091 865.000
21.72136 823.000
21.74182 805.000
21.76227 801.000
21.78273 826.000
21.80319 780.000
21.82364 745.000
21.84410 842.000
21.86455 781.000
21.88501 830.000
21.90547 816.000
21.92592 796.000
21.94638 791.000
21.96683 773.000
21.98729 793.000
22.00775 814.000
22.02820 795.000
22.04866 820.000
22.06911 802.000
22.08957 875.000
22.11003 875.000
22.13048 801.000
22.15094 844.000
22.17139 806.000
22.19185 774.000
22.21231 802.000
22.23276 814.000
22.25322 797.000
22.27367 783.000
22.29413 800.000
22.31459 756.000
22.33504 803.000
22.35550 828.000
22.37595 821.000
22.39641 831.000
22.41687 841.000
22.43732 844.000
22.45778 857.000
22.47823 844.000
22.49869 856.000
22.51914 816.000
22.53960 855.000
22.56006 876.000
22.58051 846.000
22.60097 896.000
22.62142 841.000
22.64188 822.000
22.66234 854.000
22.68279 846.000
22.70325 870.000
22.72370 859.000
22.74416 834.000
22.76462 873.000
22.78507 851.000
22.80553 867.000
22.82598 844.000
22.84644 826.000
22.86690 825.000
22.88735 848.000
22.90781 876.000
22.92826 808.000
22.94872 867.000
22.96918 836.000
22.98963 888.000
23.01009 846.000
23.03054 813.000
23.05100 830.000
23.07146 877.000
23.09191 854.000
23.11237 940.000
23.13282 902.000
23.15328 864.000
23.17374 911.000
23.19419 865.000
23.21465 848.000
23.23510 842.000
23.25556 810.000
23.27602 899.000
23.29647 858.000
23.31693 866.000
23.33738 888.000
23.35784 864.000
23.37830 906.000
23.39875 956.000
23.41921 886.000
23.43966 856.000
23.46012 835.000
23.48057 881.000
23.50103 859.000
23.52149 881.000
23.54194 913.000
23.56240 906.000
23.58285 864.000
23.60331 935.000
23.62377 881.000
23.64422 849.000
23.66468 917.000
23.68513 897.000
23.70559 900.000
23.72605 896.000
23.74650 908.000
23.76696 944.000
23.78741 921.000
23.80787 945.000
23.82833 943.000
23.84878 902.000
23.86924 889.000
23.88969 898.000
23.91015 905.000
23.93061 865.000
23.95106 909.000
23.97152 956.000
23.99197 975.000
24.01243 869.000
24.03289 928.000
24.05334 953.000
24.07380 1028.000
24.09425 971.000
24.11471 993.000
24.13517 1083.000
24.15562 1189.000
24.17608 1463.000
24.19653 1970.000
24.21699 3028.000
24.23745 3902.000
24.25790 3079.000
24.27836 2545.000
24.29881 2596.000
24.31927 1890.000
24.33973 1334.000
24.36018 1069.000
24.38064 1010.000
24.40109 1062.000
24.42155 942.000
24.44200 943.000
24.46246 936.000
24.48292 891.000
24.50337 970.000
24.52383 881.000
24.54428 884.000
24.56474 873.000
24.58520 861.000
24.60565 962.000
24.62611 935.000
24.64656 916.000
24.66702 870.000
24.68748 920.000
24.70793 895.000
24.72839 866.000
24.74884 907.000
24.76930 922.000
24.78976 840.000
24.81021 930.000
24.83067 936.000
24.85112 909.000
24.87158 932.000
24.89204 877.000
24.91249 902.000
24.93295 883.000
24.95340 872.000
24.97386 887.000
24.99432 913.000
25.01477 932.000
25.03523 904.000
25.05568 933.000
25.07614 946.000
25.09660 938.000
25.11705 929.000
25.13751 909.000
25.15796 912.000
25.17842 893.000
25.19888 913.000
25.21933 881.000
25.23979 885.000
25.26024 897.000
25.28070 851.000
25.30115 914.000
25.32161 959.000
25.34207 912.000
25.36252 891.000
25.38298 955.000
25.40343 1024.000
25.42389 898.000
25.44435 992.000
25.46480 963.000
25.48526 902.000
25.50571 918.000
25.52617 928.000
25.54663 949.000
25.56708 890.000
25.58754 908.000
25.60799 862.000
25.62845 888.000
25.64891 905.000
25.66936 868.000
25.68982 929.000
25.71027 869.000
25.73073 888.000
25.75119 910.000
25.77164 866.000
25.79210 884.000
25.81255 885.000
25.83301 840.000
25.85347 880.000
25.87392 857.000
25.89438 855.000
25.91483 891.000
25.93529 886.000
25.95575 877.000
25.97620 908.000
25.99666 937.000
26.01711 836.000
26.03757 968.000
26.05803 879.000
26.07848 866.000
26.09894 905.000
26.11939 949.000
26.13985 1041.000
26.16031 1037.000
26.18076 1318.000
26.20122 1707.000
26.22167 2040.000
26.24213 1855.000
26.26258 1557.000
26.28304 1647.000
26.30350 1469.000
26.32395 1151.000
26.34441 970.000
26.36486 957.000
26.38532 978.000
26.40578 874.000
26.42623 901.000
26.44669 915.000
26.46714 959.000
26.48760 925.000
26.50806 880.000
26.52851 892.000
26.54897 822.000
26.56942 916.000
26.58988 881.000
26.61034 880.000
26.63079 905.000
26.65125 843.000
26.67170 864.000
26.69216 872.000
26.71262 857.000
26.73307 860.000
26.75353 890.000
26.77398 843.000
26.79444 833.000
26.81490 850.000
26.83535 851.000
26.85581 914.000
26.87626 871.000
26.89672 950.000
26.91718 852.000
26.93763 859.000
26.95809 887.000
26.97854 854.000
26.99900 947.000
27.01946 806.000
27.03991 873.000
27.06037 911.000
27.08082 870.000
27.10128 877.000
27.12174 893.000
27.14219 858.000
27.16265 862.000
27.18310 848.000
27.20356 899.000
27.22401 835.000
27.24447 872.000
27.26493 852.000
27.28538 875.000
27.30584 853.000
27.32629 874.000
27.34675 943.000
27.36721 926.000
27.38766 851.000
27.40812 870.000
27.42857 896.000
27.44903 878.000
27.46949 845.000
27.48994 860.000
27.51040 831.000
27.53085 835.000
27.55131 917.000
27.57177 875.000
27.59222 905.000
27.61268 865.000
27.63313 931.000
27.65359 846.000
27.67405 859.000
27.69450 834.000
27.71496 911.000
27.73541 915.000
27.75587 893.000
27.77633 950.000
27.79678 941.000
27.81724 928.000
27.83769 965.000
27.85815 972.000
27.87861 995.000
27.89906 1105.000
27.91952 1184.000
27.93997 1351.000
27.96043 1435.000
27.98089 1816.000
28.00134 2901.000
28.02180 5993.000
28.04225 11109.000
28.06271 10137.000
28.08316 5036.000
28.10362 5631.000
28.12408 6969.000
28.14453 4024.000
28.16499 1861.000
28.18544 1301.000
28.20590 1180.000
28.22636 1127.000
28.24681 1129.000
28.26727 1028.000
28.28772 1021.000
28.30818 956.000
28.32864 973.000
28.34909 940.000
28.36955 934.000
28.39000 972.000
28.41046 910.000
28.43092 918.000
28.45137 885.000
28.47183 888.000
28.49228 903.000
28.51274 895.000
28.53320 962.000
28.55365 943.000
28.57411 900.000
28.59456 950.000
28.61502 998.000
28.63548 936.000
28.65593 920.000
28.67639 996.000
28.69684 1070.000
28.71730 1123.000
28.73776 1144.000
28.75821 1224.000
28.77867 1216.000
28.79912 1123.000
28.81958 1090.000
28.84004 1052.000
28.86049 981.000
28.88095 990.000
28.90140 938.000
28.92186 870.000
28.94232 903.000
28.96277 913.000
28.98323 885.000
29.00368 934.000
29.02414 841.000
29.04459 870.000
29.06505 886.000
29.08551 859.000
29.10596 844.000
29.12642 853.000
29.14687 855.000
29.16733 892.000
29.18779 915.000
29.20824 869.000
29.22870 856.000
29.24915 870.000
29.26961 854.000
29.29007 840.000
29.31052 832.000
29.33098 794.000
29.35143 826.000
29.37189 854.000
29.39235 797.000
29.41280 812.000
29.43326 852.000
29.45371 800.000
29.47417 796.000
29.49463 866.000
29.51508 873.000
29.53554 818.000
29.55599 808.000
29.57645 817.000
29.59691 882.000
29.61736 783.000
29.63782 791.000
29.65827 907.000
29.67873 827.000
29.69919 791.000
29.71964 835.000
29.74010 845.000
29.76055 887.000
29.78101 816.000
29.80147 798.000
29.82192 832.000
29.84238 832.000
29.86283 812.000
29.88329 818.000
29.90375 823.000
29.92420 813.000
29.94466 841.000
29.96511 808.000
29.98557 791.000
30.00602 824.000
30.02648 761.000
30.04694 803.000
30.06739 833.000
30.08785 816.000
30.10830 805.000
30.12876 839.000
30.14922 824.000
30.16967 849.000
30.19013 822.000
30.21058 838.000
30.23104 779.000
30.25150 821.000
30.27195 799.000
30.29241 785.000
30.31286 784.000
30.33332 844.000
30.35378 842.000
30.37423 829.000
30.39469 805.000
30.41514 835.000
30.43560 807.000
30.45606 830.000
30.47651 916.000
30.49697 1034.000
30.51742 1205.000
30.53788 1279.000
30.55834 1085.000
30.57879 1060.000
30.59925 1098.000
30.61970 964.000
30.64016 970.000
30.66062 850.000
30.68107 798.000
30.70153 815.000
30.72198 788.000
30.74244 820.000
30.76290 732.000
30.78335 818.000
30.80381 841.000
30.82426 726.000
30.84472 851.000
30.86517 704.000
30.88563 793.000
30.90609 785.000
30.92654 763.000
30.94700 780.000
30.96745 798.000
30.98791 830.000
31.00837 785.000
31.02882 778.000
31.04928 810.000
31.06973 807.000
31.09019 778.000
31.11065 783.000
31.13110 821.000
31.15156 810.000
31.17201 759.000
31.19247 784.000
31.21293 838.000
31.23338 803.000
31.25384 853.000
31.27429 843.000
31.29475 918.000
31.31521 989.000
31.33566 1024.000
31.35612 1185.000
31.37657 1466.000
31.39703 2371.000
31.41749 3991.000
31.43794 6483.000
31.45840 6217.000
31.47885 4460.000
31.49931 3698.000
31.51977 4157.000
31.54022 3573.000
31.56068 2380.000
31.58113 1481.000
31.60159 1119.000
31.62205 942.000
31.64250 946.000
31.66296 867.000
31.68341 872.000
31.70387 862.000
31.72433 803.000
31.74478 807.000
31.76524 805.000
31.78569 762.000
31.80615 758.000
31.82660 761.000
31.84706 810.000
31.86752 784.000
31.88797 741.000
31.90843 829.000
31.92888 751.000
31.94934 789.000
31.96980 761.000
31.99025 813.000
32.01071 801.000
32.03116 812.000
32.05162 724.000
32.07208 746.000
32.09253 757.000
32.11299 767.000
32.13344 747.000
32.15390 793.000
32.17436 751.000
32.19481 781.000
32.21527 711.000
32.23572 791.000
32.25618 727.000
32.27664 800.000
32.29709 763.000
32.31755 751.000
32.33800 748.000
32.35846 712.000
32.37892 796.000
32.39937 784.000
32.41983 731.000
32.44028 730.000
32.46074 722.000
32.48120 765.000
32.50165 727.000
32.52211 734.000
32.54256 772.000
32.56302 752.000
32.58348 746.000
32.60393 746.000
32.62439 744.000
32.64484 707.000
32.66530 743.000
32.68576 727.000
32.70621 733.000
32.72667 726.000
32.74712 818.000
32.76758 899.000
32.78803 1096.000
32.80849 1343.000
32.82895 1533.000
32.84940 1167.000
32.86986 1040.000
32.89031 1116.000
32.91077 1111.000
32.93123 989.000
32.95168 861.000
32.97214 743.000
32.99259 759.000
33.01305 704.000
33.03351 670.000
33.05396 678.000
33.07442 697.000
33.09487 668.000
33.11533 682.000
33.13579 649.000
33.15624 731.000
33.17670 688.000
33.19715 640.000
33.21761 704.000
33.23807 731.000
33.25852 739.000
33.27898 668.000
33.29943 696.000
33.31989 681.000
33.34035 736.000
33.36080 649.000
33.38126 689.000
33.40171 668.000
33.42217 713.000
33.44263 737.000
33.46308 788.000
33.48354 818.000
33.50399 791.000
33.52445 668.000
33.54491 709.000
33.56536 737.000
33.58582 751.000
33.60627 679.000
33.62673 645.000
33.64718 693.000
33.66764 653.000
33.68810 623.000
33.70855 694.000
33.72901 633.000
33.74946 624.000
33.76992 612.000
33.79038 666.000
33.81083 653.000
33.83129 668.000
33.85174 629.000
33.87220 636.000
33.89266 665.000
33.91311 641.000
33.93357 706.000
33.95402 628.000
33.97448 622.000
33.99494 642.000
34.01539 591.000
34.03585 641.000
34.05630 645.000
34.07676 665.000
34.09722 601.000
34.11767 621.000
34.13813 592.000
34.15858 595.000
34.17904 581.000
34.19950 585.000
34.21995 648.000
34.24041 640.000
34.26086 602.000
34.28132 587.000
34.30178 569.000
34.32223 685.000
34.34269 660.000
34.36314 651.000
34.38360 635.000
34.40406 672.000
34.42451 719.000
34.44497 732.000
34.46542 905.000
34.48588 1080.000
34.50634 1619.000
34.52679 2374.000
34.54725 2255.000
34.56770 1452.000
34.58816 1351.000
34.60861 1570.000
34.62907 1669.000
34.64953 1098.000
34.66998 860.000
34.69044 770.000
34.71089 686.000
34.73135 704.000
34.75181 630.000
34.77226 589.000
34.79272 599.000
34.81317 586.000
34.83363 615.000
34.85409 627.000
34.87454 608.000
34.89500 594.000
34.91545 589.000
34.93591 579.000
34.95637 598.000
34.97682 607.000
34.99728 632.000
35.01773 548.000
35.03819 585.000
35.05865 626.000
35.07910 563.000
35.09956 625.000
35.12001 603.000
35.14047 572.000
35.16093 587.000
35.18138 542.000
35.20184 591.000
35.22229 604.000
35.24275 595.000
35.26321 576.000
35.28366 596.000
35.30412 548.000
35.32457 575.000
35.34503 592.000
35.36549 572.000
35.38594 571.000
35.40640 593.000
35.42685 641.000
35.44731 540.000
35.46777 555.000
35.48822 604.000
35.50868 575.000
35.52913 574.000
35.54959 548.000
35.57004 558.000
35.59050 587.000
35.61096 588.000
35.63141 633.000
35.65187 612.000
35.67232 605.000
35.69278 671.000
35.71324 658.000
35.73369 747.000
35.75415 844.000
35.77460 1110.000
35.79506 1705.000
35.81552 2372.000
35.83597 1764.000
35.85643 1167.000
35.87688 1160.000
35.89734 1480.000
35.91780 1407.000
35.93825 938.000
35.95871 746.000
35.97916 655.000
35.99962 651.000
36.02008 653.000
36.04053 603.000
36.06099 621.000
36.08144 551.000
36.10190 624.000
36.12236 637.000
36.14281 622.000
36.16327 544.000
36.18372 514.000
36.20418 550.000
36.22464 547.000
36.24509 549.000
36.26555 561.000
36.28600 548.000
36.30646 594.000
36.32692 596.000
36.34737 579.000
36.36783 602.000
36.38828 626.000
36.40874 563.000
36.42919 528.000
36.44965 523.000
36.47011 544.000
36.49056 565.000
36.51102 557.000
36.53147 520.000
36.55193 585.000
36.57239 543.000
36.59284 560.000
36.61330 534.000
36.63375 535.000
36.65421 548.000
36.67467 563.000
36.69512 544.000
36.71558 519.000
36.73603 540.000
36.75649 550.000
36.77695 524.000
36.79740 536.000
36.81786 518.000
36.83831 547.000
36.85877 549.000
36.87923 513.000
36.89968 523.000
36.92014 536.000
36.94059 565.000
36.96105 520.000
36.98151 522.000
37.00196 559.000
37.02242 555.000
37.04287 529.000
37.06333 554.000
37.08379 491.000
37.10424 547.000
37.12470 524.000
37.14515 607.000
37.16561 501.000
37.18607 520.000
37.20652 563.000
37.22698 540.000
37.24743 550.000
37.26789 529.000
37.28835 592.000
37.30880 571.000
37.32926 572.000
37.34971 522.000
37.37017 560.000
37.39062 570.000
37.41108 546.000
37.43154 580.000
37.45199 590.000
37.47245 552.000
37.49290 599.000
37.51336 562.000
37.53382 592.000
37.55427 642.000
37.57473 603.000
37.59518 598.000
37.61564 605.000
37.63610 685.000
37.65655 711.000
37.67701 735.000
37.69746 768.000
37.71792 771.000
37.73838 902.000
37.75883 993.000
37.77929 1093.000
37.79974 1203.000
37.82020 1453.000
37.84066 1731.000
37.86111 1963.000
37.88157 2386.000
37.90202 3300.000
37.92248 5241.000
37.94294 9175.000
37.96339 14768.000
37.98385 22017.000
38.00430 25693.000
38.02476 22640.000
38.04522 17335.000
38.06567 15329.000
38.08613 15811.000
38.10658 15313.000
38.12704 11928.000
38.14750 8161.000
38.16795 5030.000
38.18841 3417.000
38.20886 2477.000
38.22932 1922.000
38.24978 1539.000
38.27023 1364.000
38.29069 1258.000
38.31114 1059.000
38.33160 967.000
38.35205 943.000
38.37251 853.000
38.39297 832.000
38.41342 894.000
38.43388 861.000
38.45433 827.000
38.47479 875.000
38.49525 834.000
38.51570 878.000
38.53616 990.000
38.55661 1050.000
38.57707 1229.000
38.59753 1604.000
38.61798 2250.000
38.63844 2636.000
38.65889 2637.000
38.67935 2415.000
38.69981 2049.000
38.72026 1988.000
38.74072 1998.000
38.76117 1824.000
38.78163 1547.000
38.80209 1172.000
38.82254 1026.000
38.84300 852.000
38.86345 763.000
38.88391 781.000
38.90437 767.000
38.92482 735.000
38.94528 759.000
38.96573 824.000
38.98619 766.000
39.00665 674.000
39.02710 626.000
39.04756 664.000
39.06801 735.000
39.08847 610.000
39.10893 610.000
39.12938 604.000
39.14984 533.000
39.17029 539.000
39.19075 570.000
39.21120 564.000
39.23166 599.000
39.25212 528.000
39.27257 552.000
39.29303 526.000
39.31348 516.000
39.33394 546.000
39.35440 522.000
39.37485 500.000
39.39531 583.000
39.41576 535.000
39.43622 522.000
39.45668 481.000
39.47713 562.000
39.49759 534.000
39.51804 499.000
39.53850 549.000
39.55896 517.000
39.57941 520.000
39.59987 514.000
39.62032 503.000
39.64078 552.000
39.66124 548.000
39.68169 497.000
39.70215 514.000
39.72260 460.000
39.74306 531.000
39.76352 525.000
39.78397 559.000
39.80443 500.000
39.82488 549.000
39.84534 554.000
39.86580 541.000
39.88625 553.000
39.90671 518.000
39.92716 606.000
39.94762 541.000
39.96808 580.000
39.98853 543.000
40.00899 621.000
40.02944 716.000
40.04990 960.000
40.07036 1309.000
40.09081 1424.000
40.11127 1086.000
40.13172 870.000
40.15218 815.000
40.17263 990.000
40.19309 1070.000
40.21355 829.000
40.23400 626.000
40.25446 607.000
40.27491 511.000
40.29537 555.000
40.31583 517.000
40.33628 543.000
40.35674 527.000
40.37719 503.000
40.39765 514.000
40.41811 516.000
40.43856 546.000
40.45902 509.000
40.47947 520.000
40.49993 528.000
40.52039 473.000
40.54084 518.000
40.56130 501.000
40.58175 548.000
40.60221 496.000
40.62267 533.000
40.64312 534.000
40.66358 536.000
40.68403 529.000
40.70449 523.000
40.72495 552.000
40.74540 550.000
40.76586 502.000
40.78631 533.000
40.80677 565.000
40.82723 516.000
40.84768 538.000
40.86814 511.000
40.88859 495.000
40.90905 499.000
40.92951 507.000
40.94996 492.000
40.97042 585.000
40.99087 572.000
41.01133 568.000
41.03179 517.000
41.05224 558.000
41.07270 510.000
41.09315 561.000
41.11361 558.000
41.13406 563.000
41.15452 527.000
41.17498 535.000
41.19543 536.000
41.21589 518.000
41.23634 524.000
41.25680 560.000
41.27726 553.000
41.29771 554.000
41.31817 523.000
41.33862 486.000
41.35908 555.000
41.37954 578.000
41.39999 598.000
41.42045 593.000
41.44090 647.000
41.46136 688.000
41.48182 731.000
41.50227 868.000
41.52273 1042.000
41.54318 1397.000
41.56364 2026.000
41.58410 2990.000
41.60455 2776.000
41.62501 1653.000
41.64546 1239.000
41.66592 1439.000
41.68638 1743.000
41.70683 1905.000
41.72729 1408.000
41.74774 999.000
41.76820 927.000
41.78866 851.000
41.80911 724.000
41.82957 679.000
41.85002 655.000
41.87048 686.000
41.89094 630.000
41.91139 585.000
41.93185 606.000
41.95230 514.000
41.97276 547.000
41.99321 513.000
42.01367 539.000
42.03413 500.000
42.05458 537.000
42.07504 554.000
42.09549 501.000
42.11595 518.000
42.13641 560.000
42.15686 481.000
42.17732 512.000
42.19777 513.000
42.21823 489.000
42.23869 555.000
42.25914 533.000
42.27960 502.000
42.30005 511.000
42.32051 531.000
42.34097 482.000
42.36142 548.000
42.38188 533.000
42.40233 520.000
42.42279 534.000
42.44325 539.000
42.46370 536.000
42.48416 533.000
42.50461 573.000
42.52507 562.000
42.54553 588.000
42.56598 660.000
42.58644 722.000
42.60689 932.000
42.62735 1304.000
42.64781 1224.000
42.66826 1051.000
42.68872 869.000
42.70917 842.000
42.72963 913.000
42.75009 993.000
42.77054 946.000
42.79100 797.000
42.81145 700.000
42.83191 601.000
42.85237 587.000
42.87282 577.000
42.89328 532.000
42.91373 507.000
42.93419 512.000
42.95464 566.000
42.97510 550.000
42.99556 515.000
43.01601 560.000
43.03647 567.000
43.05692 555.000
43.07738 547.000
43.09784 541.000
43.11829 526.000
43.13875 539.000
43.15920 520.000
43.17966 593.000
43.20012 563.000
43.22057 578.000
43.24103 608.000
43.26148 633.000
43.28194 688.000
43.30240 735.000
43.32285 922.000
43.34331 1144.000
43.36376 1570.000
43.38422 1616.000
43.40468 1147.000
43.42513 901.000
43.44559 878.000
43.46604 1004.000
43.48650 1153.000
43.50696 986.000
43.52741 756.000
43.54787 642.000
43.56832 603.000
43.58878 550.000
43.60924 604.000
43.62969 601.000
43.65015 553.000
43.67060 555.000
43.69106 549.000
43.71152 541.000
43.73197 534.000
43.75243 549.000
43.77288 577.000
43.79334 607.000
43.81380 555.000
43.83425 576.000
43.85471 588.000
43.87516 574.000
43.89562 550.000
43.91607 580.000
43.93653 622.000
43.95699 555.000
43.97744 586.000
43.99790 664.000
44.01835 725.000
44.03881 713.000
44.05927 766.000
44.07972 816.000
44.10018 937.000
44.12063 1063.000
44.14109 1355.000
44.16155 1792.000
44.18200 2425.000
44.20246 3416.000
44.22291 4499.000
44.24337 4899.000
44.26383 4846.000
44.28428 4080.000
44.30474 3545.000
44.32519 3235.000
44.34565 3353.000
44.36611 3309.000
44.38656 2811.000
44.40702 2096.000
44.42747 1643.000
44.44793 1217.000
44.46839 986.000
44.48884 833.000
44.50930 781.000
44.52975 675.000
44.55021 683.000
44.57067 573.000
44.59112 609.000
44.61158 513.000
44.63203 585.000
44.65249 547.000
44.67295 512.000
44.69340 488.000
44.71386 507.000
44.73431 511.000
44.75477 450.000
44.77522 508.000
44.79568 456.000
44.81614 548.000
44.83659 496.000
44.85705 508.000
44.87750 494.000
44.89796 557.000
44.91842 689.000
44.93887 581.000
44.95933 561.000
44.97978 541.000
45.00024 505.000
45.02070 559.000
45.04115 611.000
45.06161 558.000
45.08206 537.000
45.10252 488.000
45.12298 479.000
45.14343 435.000
45.16389 471.000
45.18434 450.000
45.20480 455.000
45.22526 442.000
45.24571 472.000
45.26617 446.000
45.28662 464.000
45.30708 468.000
45.32754 445.000
45.34799 457.000
45.36845 482.000
45.38890 458.000
45.40936 413.000
45.42982 458.000
45.45027 452.000
45.47073 474.000
45.49118 509.000
45.51164 476.000
45.53210 453.000
45.55255 452.000
45.57301 444.000
45.59346 463.000
45.61392 428.000
45.63438 474.000
45.65483 460.000
45.67529 452.000
45.69574 453.000
45.71620 511.000
45.73665 471.000
45.75711 527.000
45.77757 498.000
45.79802 462.000
45.81848 483.000
45.83893 469.000
45.85939 491.000
45.87985 511.000
45.90030 501.000
45.92076 444.000
45.94121 418.000
45.96167 455.000
45.98213 424.000
46.00258 416.000
46.02304 404.000
46.04349 398.000
46.06395 431.000
46.08441 443.000
46.10486 421.000
46.12532 429.000
46.14577 409.000
46.16623 383.000
46.18669 420.000
46.20714 431.000
46.22760 387.000
46.24805 384.000
46.26851 432.000
46.28897 441.000
46.30942 434.000
46.32988 398.000
46.35033 410.000
46.37079 391.000
46.39125 410.000
46.41170 417.000
46.43216 403.000
46.45261 433.000
46.47307 384.000
46.49353 373.000
46.51398 421.000
46.53444 422.000
46.55489 395.000
46.57535 425.000
46.59581 462.000
46.61626 433.000
46.63672 422.000
46.65717 421.000
46.67763 431.000
46.69808 430.000
46.71854 367.000
46.73900 376.000
46.75945 429.000
46.77991 412.000
46.80036 418.000
46.82082 411.000
46.84128 388.000
46.86173 431.000
46.88219 430.000
46.90264 417.000
46.92310 469.000
46.94356 453.000
46.96401 420.000
46.98447 433.000
47.00492 416.000
47.02538 427.000
47.04584 413.000
47.06629 432.000
47.08675 423.000
47.10720 426.000
47.12766 434.000
47.14812 403.000
47.16857 420.000
47.18903 431.000
47.20948 419.000
47.22994 382.000
47.25040 438.000
47.27085 402.000
47.29131 409.000
47.31176 436.000
47.33222 411.000
47.35268 392.000
47.37313 430.000
47.39359 484.000
47.41404 495.000
47.43450 554.000
47.45496 467.000
47.47541 443.000
47.49587 460.000
47.51632 470.000
47.53678 503.000
47.55723 496.000
47.57769 416.000
47.59815 436.000
47.61860 422.000
47.63906 454.000
47.65951 424.000
47.67997 434.000
47.70043 448.000
47.72088 471.000
47.74134 463.000
47.76179 429.000
47.78225 433.000
47.80271 437.000
47.82316 431.000
47.84362 414.000
47.86407 430.000
47.88453 416.000
47.90499 464.000
47.92544 460.000
47.94590 390.000
47.96635 373.000
47.98681 455.000
48.00727 420.000
48.02772 393.000
48.04818 398.000
48.06863 422.000
48.08909 398.000
48.10955 407.000
48.13000 429.000
48.15046 440.000
48.17091 447.000
48.19137 428.000
48.21183 399.000
48.23228 397.000
48.25274 392.000
48.27319 410.000
48.29365 396.000
48.31411 427.000
48.33456 402.000
48.35502 454.000
48.37547 414.000
48.39593 470.000
48.41639 439.000
48.43684 452.000
48.45730 430.000
48.47775 434.000
48.49821 450.000
48.51866 454.000
48.53912 476.000
48.55958 468.000
48.58003 528.000
48.60049 501.000
48.62094 505.000
48.64140 558.000
48.66186 599.000
48.68231 655.000
48.70277 663.000
48.72322 710.000
48.74368 794.000
48.76414 1013.000
48.78459 1238.000
48.80505 1729.000
48.82550 2628.000
48.84596 3389.000
48.86642 3753.000
48.88687 3521.000
48.90733 2847.000
48.92778 2296.000
48.94824 2149.000
48.96870 2422.000
48.98915 2453.000
49.00961 2285.000
49.03006 1830.000
49.05052 1449.000
49.07098 1123.000
49.09143 892.000
49.11189 767.000
49.13234 675.000
49.15280 611.000
49.17326 563.000
49.19371 522.000
49.21417 523.000
49.23462 477.000
49.25508 461.000
49.27554 501.000
49.29599 509.000
49.31645 520.000
49.33690 515.000
49.35736 561.000
49.37782 511.000
49.39827 527.000
49.41873 470.000
49.43918 513.000
49.45964 454.000
49.48009 480.000
49.50055 468.000
49.52101 453.000
49.54146 454.000
49.56192 476.000
49.58237 435.000
49.60283 483.000
49.62329 495.000
49.64374 451.000
49.66420 485.000
49.68465 432.000
49.70511 494.000
49.72557 493.000
49.74602 556.000
49.76648 614.000
49.78693 684.000
49.80739 876.000
49.82785 907.000
49.84830 841.000
49.86876 688.000
49.88921 659.000
49.90967 605.000
49.93013 614.000
49.95058 690.000
49.97104 683.000
49.99149 591.000
50.01195 516.000
50.03241 438.000
50.05286 441.000
50.07332 436.000
50.09377 429.000
50.11423 349.000
50.13469 401.000
50.15514 413.000
50.17560 416.000
50.19605 420.000
50.21651 419.000
50.23697 424.000
50.25742 398.000
50.27788 372.000
50.29833 426.000
50.31879 353.000
50.33924 363.000
50.35970 403.000
50.38016 367.000
50.40061 385.000
50.42107 410.000
50.44152 375.000
50.46198 388.000
50.48244 404.000
50.50289 395.000
50.52335 396.000
50.54380 411.000
50.56426 385.000
50.58472 365.000
50.60517 394.000
50.62563 404.000
50.64608 382.000
50.66654 356.000
50.68700 394.000
50.70745 365.000
50.72791 404.000
50.74836 369.000
50.76882 398.000
50.78928 383.000
50.80973 406.000
50.83019 359.000
50.85064 389.000
50.87110 365.000
50.89156 366.000
50.91201 341.000
50.93247 369.000
50.95292 357.000
50.97338 375.000
50.99384 375.000
51.01429 352.000
51.03475 384.000
51.05520 360.000
51.07566 364.000
51.09612 366.000
51.11657 391.000
51.13703 352.000
51.15748 377.000
51.17794 373.000
51.19840 357.000
51.21885 362.000
51.23931 345.000
51.25976 391.000
51.28022 341.000
51.30067 384.000
51.32113 374.000
51.34159 371.000
51.36204 315.000
51.38250 339.000
51.40295 368.000
51.42341 370.000
51.44387 393.000
51.46432 345.000
51.48478 369.000
51.50523 369.000
51.52569 354.000
51.54615 325.000
51.56660 370.000
51.58706 350.000
51.60751 371.000
51.62797 367.000
51.64843 428.000
51.66888 387.000
51.68934 349.000
51.70979 368.000
51.73025 344.000
51.75071 430.000
51.77116 344.000
51.79162 386.000
51.81207 330.000
51.83253 378.000
51.85299 346.000
51.87344 370.000
51.89390 378.000
51.91435 344.000
51.93481 350.000
51.95527 376.000
51.97572 361.000
51.99618 378.000
52.01663 364.000
52.03709 373.000
52.05755 353.000
52.07800 378.000
52.09846 380.000
52.11891 363.000
52.13937 359.000
52.15983 360.000
52.18028 348.000
52.20074 332.000
52.22119 318.000
52.24165 363.000
52.26210 391.000
52.28256 355.000
52.30302 327.000
52.32347 391.000
52.34393 329.000
52.36438 402.000
52.38484 352.000
52.40530 378.000
52.42575 352.000
52.44621 337.000
52.46666 345.000
52.48712 370.000
52.50758 341.000
52.52803 395.000
52.54849 372.000
52.56894 399.000
52.58940 391.000
52.60986 374.000
52.63031 365.000
52.65077 372.000
52.67122 328.000
52.69168 347.000
52.71214 382.000
52.73259 372.000
52.75305 352.000
52.77350 348.000
52.79396 396.000
52.81442 355.000
52.83487 314.000
52.85533 361.000
52.87578 365.000
52.89624 383.000
52.91670 351.000
52.93715 387.000
52.95761 368.000
52.97806 413.000
52.99852 410.000
53.01898 433.000
53.03943 516.000
53.05989 611.000
53.08034 537.000
53.10080 462.000
53.12125 424.000
53.14171 440.000
53.16217 433.000
53.18262 457.000
53.20308 458.000
53.22353 502.000
53.24399 405.000
53.26445 414.000
53.28490 373.000
53.30536 425.000
53.32581 403.000
53.34627 379.000
53.36673 368.000
53.38718 371.000
53.40764 405.000
53.42809 379.000
53.44855 357.000
53.46901 371.000
53.48946 353.000
53.50992 385.000
53.53037 402.000
53.55083 397.000
53.57129 422.000
53.59174 419.000
53.61220 433.000
53.63265 416.000
53.65311 393.000
53.67357 423.000
53.69402 428.000
53.71448 402.000
53.73493 452.000
53.75539 432.000
53.77585 410.000
53.79630 425.000
53.81676 396.000
53.83721 404.000
53.85767 431.000
53.87813 438.000
53.89858 508.000
53.91904 510.000
53.93949 580.000
53.95995 604.000
53.98041 555.000
54.00086 521.000
54.02132 482.000
54.04177 513.000
54.06223 474.000
54.08268 516.000
54.10314 488.000
54.12360 499.000
54.14405 470.000
54.16451 407.000
54.18496 400.000
54.20542 394.000
54.22588 361.000
54.24633 393.000
54.26679 379.000
54.28724 409.000
54.30770 391.000
54.32816 388.000
54.34861 390.000
54.36907 384.000
54.38952 395.000
54.40998 403.000
54.43044 370.000
54.45089 380.000
54.47135 401.000
54.49180 355.000
54.51226 389.000
54.53272 391.000
54.55317 418.000
54.57363 380.000
54.59408 367.000
54.61454 394.000
54.63500 402.000
54.65545 382.000
54.67591 310.000
54.69636 335.000
54.71682 353.000
54.73728 394.000
54.75773 379.000
54.77819 376.000
54.79864 340.000
54.81910 336.000
54.83956 344.000
54.86001 392.000
54.88047 392.000
54.90092 357.000
54.92138 341.000
54.94184 332.000
54.96229 370.000
54.98275 333.000
55.00320 332.000
55.02366 342.000
55.04411 363.000
55.06457 322.000
55.08503 351.000
55.10548 348.000
55.12594 361.000
55.14639 336.000
55.16685 363.000
55.18731 326.000
55.20776 354.000
55.22822 347.000
55.24867 352.000
55.26913 361.000
55.28959 361.000
55.31004 371.000
55.33050 351.000
55.35095 372.000
55.37141 350.000
55.39187 328.000
55.41232 364.000
55.43278 336.000
55.45323 383.000
55.47369 339.000
55.49415 346.000
55.51460 360.000
55.53506 332.000
55.55551 372.000
55.57597 347.000
55.59643 355.000
55.61688 325.000
55.63734 342.000
55.65779 337.000
55.67825 380.000
55.69871 336.000
55.71916 357.000
55.73962 330.000
55.76007 332.000
55.78053 362.000
55.80099 342.000
55.82144 336.000
55.84190 356.000
55.86235 363.000
55.88281 391.000
55.90326 335.000
55.92372 348.000
55.94418 374.000
55.96463 353.000
55.98509 364.000
56.00554 390.000
56.02600 375.000
56.04646 415.000
56.06691 373.000
56.08737 355.000
56.10782 368.000
56.12828 367.000
56.14874 376.000
56.16919 413.000
56.18965 398.000
56.21010 351.000
56.23056 349.000
56.25102 345.000
56.27147 345.000
56.29193 354.000
56.31238 359.000
56.33284 416.000
56.35330 326.000
56.37375 341.000
56.39421 320.000
56.41466 332.000
56.43512 338.000
56.45558 357.000
56.47603 364.000
56.49649 357.000
56.51694 385.000
56.53740 365.000
56.55786 378.000
56.57831 390.000
56.59877 416.000
56.61922 377.000
56.63968 373.000
56.66014 350.000
56.68059 345.000
56.70105 381.000
56.72150 391.000
56.74196 392.000
56.76242 371.000
56.78287 375.000
56.80333 382.000
56.82378 340.000
56.84424 343.000
56.86469 342.000
56.88515 351.000
56.90561 316.000
56.92606 336.000
56.94652 315.000
56.96697 322.000
56.98743 358.000
57.00789 355.000
57.02834 343.000
57.04880 325.000
57.06925 342.000
57.08971 356.000
57.11017 332.000
57.13062 354.000
57.15108 353.000
57.17153 331.000
57.19199 343.000
57.21245 345.000
57.23290 333.000
57.25336 327.000
57.27381 374.000
57.29427 369.000
57.31473 333.000
57.33518 329.000
57.35564 347.000
57.37609 307.000
57.39655 343.000
57.41701 362.000
57.43746 346.000
57.45792 342.000
57.47837 353.000
57.49883 322.000
57.51929 336.000
57.53974 375.000
57.56020 320.000
57.58065 344.000
57.60111 337.000
57.62157 333.000
57.64202 343.000
57.66248 376.000
57.68293 329.000
57.70339 323.000
57.72385 343.000
57.74430 363.000
57.76476 298.000
57.78521 377.000
57.80567 316.000
57.82612 360.000
57.84658 342.000
57.86704 367.000
57.88749 344.000
57.90795 303.000
57.92840 356.000
57.94886 318.000
57.96932 304.000
57.98977 355.000
58.01023 373.000
58.03068 396.000
58.05114 347.000
58.07160 352.000
58.09205 345.000
58.11251 354.000
58.13296 356.000
58.15342 363.000
58.17388 352.000
58.19433 359.000
58.21479 351.000
58.23524 335.000
58.25570 385.000
58.27616 389.000
58.29661 431.000
58.31707 443.000
58.33752 382.000
58.35798 371.000
58.37844 373.000
58.39889 355.000
58.41935 388.000
58.43980 400.000
58.46026 388.000
58.48072 383.000
58.50117 387.000
58.52163 369.000
58.54208 351.000
58.56254 346.000
58.58300 343.000
58.60345 312.000
58.62391 377.000
58.64436 331.000
58.66482 338.000
58.68527 349.000
58.70573 361.000
58.72619 334.000
58.74664 346.000
58.76710 360.000
58.78755 350.000
58.80801 333.000
58.82847 330.000
58.84892 376.000
58.86938 342.000
58.88983 358.000
58.91029 324.000
58.93075 321.000
58.95120 390.000
58.97166 349.000
58.99211 354.000
59.01257 324.000
59.03303 346.000
59.05348 365.000
59.07394 340.000
59.09439 352.000
59.11485 355.000
59.13531 362.000
59.15576 367.000
59.17622 355.000
59.19667 378.000
59.21713 363.000
59.23759 367.000
59.25804 362.000
59.27850 377.000
59.29895 339.000
59.31941 391.000
59.33987 392.000
59.36032 391.000
59.38078 408.000
59.40123 481.000
59.42169 492.000
59.44215 544.000
59.46260 638.000
59.48306 785.000
59.50351 764.000
59.52397 779.000
59.54443 742.000
59.56488 707.000
59.58534 577.000
59.60579 562.000
59.62625 582.000
59.64670 601.000
59.66716 645.000
59.68762 618.000
59.70807 560.000
59.72853 497.000
59.74898 453.000
59.76944 445.000
59.78990 453.000
59.81035 -9999.000
59.83081 -9999.000
59.85126 -9999.000
59.87172 -9999.000
59.89218 -9999.000
59.91263 -9999.000
59.93309 -9999.000
59.95354 -9999.000
59.97400 -9999.000
59.99446 -9999.000
